Wavelength (nm),%T
1000,0.793988594
999,0.792869699
998,0.793346388
997,0.793248708
996,0.793025205
995,0.79292622
994,0.792799251
993,0.793305302
992,0.79266286
991,0.792768442
990,0.792804224
989,0.792910443
988,0.79276645
987,0.792521525
986,0.793089062
985,0.79252504
984,0.792798331
983,0.792623862
982,0.792685649
981,0.792732457
980,0.792333356
979,0.792816099
978,0.792026636
977,0.79235627
976,0.792162653
975,0.792006201
974,0.792098223
973,0.791661235
972,0.791706563
971,0.791534993
970,0.791466064
969,0.791399324
968,0.791172007
967,0.791189643
966,0.790848448
965,0.790968304
964,0.790772329
963,0.790620459
962,0.790572258
961,0.790448483
960,0.790382364
959,0.790042434
958,0.790259002
957,0.789918832
956,0.789886938
955,0.789742569
954,0.789813686
953,0.789771321
952,0.789665691
951,0.789383246
950,0.789483334
949,0.789458725
948,0.789098816
947,0.789179265
946,0.788972895
945,0.788949003
944,0.788539306
943,0.788858629
942,0.788555845
941,0.788533366
940,0.788406658
939,0.787895201
938,0.788253858
937,0.787883426
936,0.787497756
935,0.787455317
934,0.78732538
933,0.787295471
932,0.78663327
931,0.786975367
930,0.786471218
929,0.786431647
928,0.785769888
927,0.785887559
926,0.785546818
925,0.785206495
924,0.784984325
923,0.784604648
922,0.784139503
921,0.784349138
920,0.783748781
919,0.783519892
918,0.783077091
917,0.782789944
916,0.782386034
915,0.782092699
914,0.782016333
913,0.781123929
912,0.781235326
911,0.780409326
910,0.780368106
909,0.779556714
908,0.779492791
907,0.778522518
906,0.778448921
905,0.777599302
904,0.777293919
903,0.776394372
902,0.775981501
901,0.77512774
900,0.774083055
899,0.773513083
898,0.773248802
897,0.772021279
896,0.771287783
895,0.769708272
894,0.769288481
893,0.767403501
892,0.766788813
891,0.764279418
890,0.763434198
889,0.761137955
888,0.760194036
887,0.757174794
886,0.755826699
885,0.752330599
884,0.748644532
883,0.746367338
882,0.743918502
881,0.739767264
880,0.734985646
879,0.729720198
878,0.723770688
877,0.717904895
876,0.717429355
875,0.71805
874,0.718285292
873,0.719409249
872,0.719807804
871,0.720878144
870,0.71972312
869,0.721462732
868,0.721857473
867,0.723459655
866,0.724001463
865,0.725594383
864,0.726306429
863,0.727558317
862,0.728401417
861,0.729680901
860,0.730145686
859,0.731558592
858,0.731349474
857,0.732658573
856,0.732148861
855,0.732798779
854,0.73231535
853,0.733261281
852,0.732883145
851,0.733173298
850,0.733365394
849,0.733340447
848,0.733549639
847,0.733849803
846,0.733908605
845,0.734426724
844,0.734494588
843,0.734390119
842,0.736477304
841,0.736875453
840,0.737011286
839,0.737336973
838,0.738056337
837,0.738397502
836,0.738767484
835,0.738549677
834,0.739305921
833,0.739374281
832,0.74007481
831,0.73998505
830,0.740285588
829,0.740511274
828,0.740773112
827,0.741249717
826,0.741283077
825,0.741671293
824,0.741583234
823,0.741897628
822,0.741934511
821,0.74205742
820,0.742596256
819,0.742111774
818,0.74210627
817,0.742314396
816,0.742696297
815,0.742659404
814,0.74255208
813,0.742524613
812,0.742556097
811,0.742589743
810,0.742410929
809,0.742715297
808,0.741992699
807,0.74198458
806,0.742109153
805,0.741345023
804,0.741524477
803,0.740979913
802,0.740736865
801,0.740112652
800,0.739971089
799,0.739361493
798,0.775745207
797,0.775581841
796,0.775815953
795,0.77577987
794,0.776629051
793,0.777004905
792,0.776789029
791,0.777066539
790,0.77663755
789,0.776621592
788,0.776625902
787,0.777012425
786,0.776752531
785,0.776804172
784,0.776778103
783,0.77668125
782,0.776967581
781,0.77652581
780,0.77669066
779,0.776335952
778,0.776382357
777,0.776657329
776,0.776229776
775,0.776411144
774,0.776443893
773,0.776444097
772,0.776633094
771,0.776143335
770,0.776297771
769,0.776152332
768,0.775883385
767,0.77621654
766,0.776189256
765,0.775960413
764,0.775931001
763,0.776075826
762,0.776018938
761,0.775756326
760,0.775501732
759,0.775742007
758,0.77556653
757,0.775981554
756,0.775688214
755,0.775310077
754,0.77513494
753,0.774810761
752,0.774894245
751,0.775322703
750,0.774911289
749,0.774734097
748,0.774702885
747,0.774251323
746,0.773961817
745,0.773993888
744,0.773654195
743,0.773241519
742,0.773042329
741,0.773161851
740,0.773169936
739,0.77253315
738,0.772228904
737,0.772003896
736,0.771771656
735,0.771344124
734,0.771647663
733,0.771246267
732,0.771148872
731,0.770468287
730,0.770722301
729,0.770126078
728,0.769821923
727,0.76922753
726,0.769336913
725,0.768969859
724,0.768479054
723,0.768224462
722,0.767699601
721,0.767462681
720,0.767042059
719,0.766341009
718,0.765264679
717,0.765870072
716,0.765713758
715,0.764764302
714,0.764439506
713,0.762638471
712,0.763448899
711,0.763084764
710,0.762427231
709,0.761793099
708,0.760377418
707,0.760629367
706,0.759961933
705,0.759119438
704,0.758142116
703,0.757536561
702,0.75784518
701,0.757278358
700,0.756801757
699,0.75534453
698,0.754568732
697,0.75490509
696,0.753829657
695,0.752422462
694,0.751600689
693,0.750875014
692,0.751097697
691,0.749965317
690,0.748713053
689,0.747436891
688,0.746931503
687,0.746638192
686,0.745038768
685,0.74422116
684,0.743216139
683,0.742350067
682,0.741198737
681,0.740587944
680,0.739354211
679,0.738146225
678,0.737223755
677,0.736159613
676,0.735080303
675,0.733593878
674,0.732451067
673,0.731314048
672,0.730127285
671,0.728860064
670,0.727478356
669,0.72607858
668,0.724670487
667,0.723218849
666,0.721866547
665,0.720476526
664,0.718972051
663,0.717403639
662,0.715973498
661,0.714410046
660,0.712989283
659,0.71106287
658,0.70954653
657,0.707875407
656,0.705969837
655,0.704377363
654,0.702432279
653,0.700496478
652,0.698567339
651,0.69652113
650,0.694896533
649,0.692537084
648,0.690550962
647,0.688276099
646,0.686264361
645,0.683930839
644,0.68150493
643,0.679276862
642,0.676613472
641,0.674640972
640,0.671635085
639,0.669226711
638,0.66646885
637,0.663691554
636,0.660998259
635,0.658028773
634,0.65522334
633,0.652073073
632,0.649114589
631,0.645907074
630,0.642445828
629,0.639405015
628,0.635659973
627,0.632569959
626,0.628533236
625,0.625041501
624,0.621014707
623,0.61761988
622,0.613622332
621,0.609524218
620,0.605513748
619,0.601096447
618,0.596992407
617,0.592358947
616,0.587914144
615,0.5833882
614,0.57847683
613,0.573823454
612,0.568670775
611,0.563708321
610,0.558198123
609,0.553204383
608,0.547627393
607,0.541161028
606,0.535671121
605,0.529476884
604,0.523954908
603,0.517579931
602,0.511438276
601,0.504756452
600,0.498438268
599,0.49164404
598,0.484674561
597,0.477476754
596,0.470303209
595,0.462961171
594,0.455385385
593,0.447616754
592,0.439759907
591,0.431748092
590,0.423559861
589,0.415391312
588,0.406970979
587,0.398748279
586,0.390103903
585,0.381185756
584,0.372327649
583,0.363112224
582,0.353882921
581,0.344798399
580,0.335308666
579,0.325571709
578,0.316123942
577,0.306412389
576,0.296640322
575,0.286769203
574,0.276739154
573,0.266716251
572,0.256796377
571,0.246633766
570,0.236488466
569,0.22649773
568,0.216803639
567,0.206907943
566,0.197002857
565,0.187433306
564,0.177416972
563,0.167934901
562,0.158771249
561,0.149623242
560,0.140842606
559,0.132298791
558,0.123880673
557,0.116086331
556,0.108483721
555,0.10104069
554,0.094291646
553,0.087721518
552,0.081743506
551,0.076111229
550,0.071215114
549,0.066406056
548,0.062291789
547,0.058748892
546,0.055792246
545,0.053401834
544,0.05177487
543,0.050327559
542,0.049590926
541,0.049237624
540,0.050021763
539,0.050817638
538,0.05251969
537,0.054598676
536,0.057202029
535,0.060517619
534,0.064154328
533,0.068322865
532,0.073220664
531,0.077966471
530,0.083798782
529,0.089617628
528,0.096026728
527,0.102848352
526,0.109642045
525,0.117014383
524,0.124795928
523,0.13259583
522,0.140613312
521,0.148968863
520,0.157464493
519,0.165899559
518,0.174714752
517,0.183581372
516,0.192440807
515,0.201449193
514,0.210182753
513,0.219467947
512,0.22830892
511,0.237314805
510,0.24624321
509,0.255117656
508,0.264039245
507,0.272783857
506,0.281542744
505,0.290115825
504,0.298644932
503,0.30684103
502,0.315342368
501,0.323384554
500,0.331313462
499,0.339418598
498,0.346953451
497,0.354560608
496,0.361913205
495,0.369354715
494,0.376659695
493,0.383387363
492,0.390222332
491,0.396641367
490,0.403394348
489,0.409588618
488,0.415936373
487,0.422098095
486,0.427806789
485,0.433802778
484,0.439262686
483,0.444581599
482,0.450107288
481,0.455334569
480,0.460175381
479,0.46520756
478,0.47001054
477,0.474401286
476,0.479199051
475,0.483382626
474,0.487596723
473,0.49132981
472,0.495624229
471,0.499601648
470,0.503039422
469,0.507050022
468,0.510241166
467,0.513805128
466,0.517016733
465,0.519876782
464,0.523117601
463,0.525961065
462,0.528800281
461,0.531232725
460,0.53376868
459,0.536656355
458,0.539652784
457,0.541821179
456,0.543630053
455,0.545639421
454,0.546718958
453,0.548827501
452,0.550654058
451,0.553258341
450,0.554499219
449,0.555775009
448,0.557377765
447,0.558619437
446,0.559990075
445,0.56100516
444,0.56211655
443,0.56322526
442,0.563574634
441,0.565055973
440,0.565658864
439,0.566171963
438,0.567163468
437,0.567582674
436,0.568326663
435,0.568668248
434,0.569481937
433,0.569363483
432,0.570207225
431,0.569995976
430,0.570305453
429,0.570026079
428,0.570033568
427,0.569802388
426,0.569145459
425,0.569135585
424,0.568903259
423,0.568332671
422,0.567339159
421,0.56749005
420,0.566530312
419,0.565488789
418,0.56513469
417,0.564220133
416,0.562923152
415,0.562136956
414,0.560822841
413,0.559796253
412,0.558347908
411,0.557440952
410,0.554920227
409,0.554241175
408,0.552458871
407,0.550866627
406,0.548224887
405,0.546462013
404,0.543994262
403,0.542138122
402,0.53953669
401,0.537329413
400,0.534504352
399,0.532068043
398,0.528850127
397,0.525859226
396,0.522742147
395,0.519626446
394,0.516220965
393,0.512885592
392,0.509043832
391,0.505043366
390,0.501257793
389,0.497010883
388,0.492746925
387,0.488412566
386,0.483619668
385,0.47933744
384,0.474246154
383,0.470126469
382,0.46552143
381,0.461788007
380,0.457413957
379,0.454446993
378,0.450788886
377,0.447488702
376,0.44512538
375,0.441810714
374,0.438660734
373,0.435144092
372,0.431526814
371,0.427416591
370,0.42380348
369,0.419669229
368,0.414381053
367,0.409718722
366,0.404735418
365,0.400048421
364,0.394481137
363,0.389234676
362,0.383344277
361,0.377433334
360,0.371828694
359,0.365199625
358,0.358590809
357,0.351930011
356,0.344934494
355,0.337901648
354,0.33048772
353,0.323190503
352,0.315245091
351,0.307087711
350,0.29850805
349,0.289899745
348,0.289573702
347,0.279659231
346,0.269480712
345,0.259424532
344,0.249050047
343,0.237949534
342,0.227699312
341,0.216001493
340,0.204861494
339,0.193998218
338,0.182157736
337,0.1712261
336,0.160338016
335,0.149200553
334,0.139192234
333,0.129229476
332,0.120031998
331,0.111364
330,0.103311477
329,0.096246104
328,0.089320962
327,0.083440978
326,0.078192867
325,0.074163447
324,0.070227659
323,0.067403309
322,0.06523448
321,0.063438049
320,0.061909145
319,0.060466406
318,0.059371281
317,0.058756819
316,0.057630987
315,0.057054793
314,0.055842338
313,0.055818863
312,0.054747583
311,0.054855835
310,0.054468707
309,0.054114055
308,0.053868816
307,0.053763106
306,0.053707561
305,0.053702164
304,0.053305357
303,0.053546391
302,0.053960562
301,0.054051833
300,0.054092595
