Wavelength (nm),%T
1000,0.965278468
999,0.964925489
998,0.964703072
997,0.965074058
996,0.96484269
995,0.964651534
994,0.96449967
993,0.964758695
992,0.964501268
991,0.964208128
990,0.964771311
989,0.964248923
988,0.964660299
987,0.964245685
986,0.964552677
985,0.964247588
984,0.964246425
983,0.964219036
982,0.964374197
981,0.963989895
980,0.964095067
979,0.963926454
978,0.963993324
977,0.963515306
976,0.963846172
975,0.963342733
974,0.963518616
973,0.963370448
972,0.963521173
971,0.963288882
970,0.962802768
969,0.96292725
968,0.962885464
967,0.962665098
966,0.962708935
965,0.962589223
964,0.962822054
963,0.962244363
962,0.962637075
961,0.962181331
960,0.962165788
959,0.962158817
958,0.961946382
957,0.962266443
956,0.962107338
955,0.962019549
954,0.961701024
953,0.961764337
952,0.961688743
951,0.961435016
950,0.961766707
949,0.961169264
948,0.961563263
947,0.96135569
946,0.961367728
945,0.961072748
944,0.960897233
943,0.960920624
942,0.960608827
941,0.961004898
940,0.960765588
939,0.960430723
938,0.960782692
937,0.960305487
936,0.960338208
935,0.960176888
934,0.960259538
933,0.960330198
932,0.959835937
931,0.960104994
930,0.959441813
929,0.959970922
928,0.959561556
927,0.959180626
926,0.959364673
925,0.959203114
924,0.959172299
923,0.958972813
922,0.958495705
921,0.958692296
920,0.9583375
919,0.958289741
918,0.958047026
917,0.958124727
916,0.957944415
915,0.957947198
914,0.957983214
913,0.95749742
912,0.957895947
911,0.957280602
910,0.957324909
909,0.957063423
908,0.957056275
907,0.956966206
906,0.956686146
905,0.956785325
904,0.956334907
903,0.956231259
902,0.956471383
901,0.95579667
900,0.955884917
899,0.955291359
898,0.955613632
897,0.955523517
896,0.955306144
895,0.955319234
894,0.955283866
893,0.955107329
892,0.954721096
891,0.954345824
890,0.954397593
889,0.953705575
888,0.954318509
887,0.953571214
886,0.953566754
885,0.952917113
884,0.952509158
883,0.952718007
882,0.952309131
881,0.951861228
880,0.950865324
879,0.950912072
878,0.950636266
877,0.949250707
876,0.949446034
875,0.948068769
874,0.947791867
873,0.94699007
872,0.946153229
871,0.944870654
870,0.944197361
869,0.943529963
868,0.942594567
867,0.941306611
866,0.941166654
865,0.939487585
864,0.939017763
863,0.937354828
862,0.936537417
861,0.933610986
860,0.933065636
859,0.930710732
858,0.92926032
857,0.929527523
856,0.929373727
855,0.929785605
854,0.928973864
853,0.928948891
852,0.928783669
851,0.928274118
850,0.928610764
849,0.925845512
848,0.925826582
847,0.925202112
846,0.925224886
845,0.925026722
844,0.924782464
843,0.924447001
842,0.925745724
841,0.926122744
840,0.925336331
839,0.925517928
838,0.925258204
837,0.924967903
836,0.925123114
835,0.92408963
834,0.924792093
833,0.924053994
832,0.923992664
831,0.923898475
830,0.923034645
829,0.923258976
828,0.922681676
827,0.922982084
826,0.922580327
825,0.922340927
824,0.922117597
823,0.921782347
822,0.921803393
821,0.921237784
820,0.921340308
819,0.920815366
818,0.920408201
817,0.920770867
816,0.920435317
815,0.919977051
814,0.920183239
813,0.919959097
812,0.919880872
811,0.91924519
810,0.919833007
809,0.919466643
808,0.91922109
807,0.91905437
806,0.918971425
805,0.918820718
804,0.918564096
803,0.918437457
802,0.917986533
801,0.917788636
800,0.917764586
799,0.917632722
798,0.932466437
797,0.932208612
796,0.932102367
795,0.931173526
794,0.931552287
793,0.931135173
792,0.930502538
791,0.930811236
790,0.929760388
789,0.930064138
788,0.929765576
787,0.929590383
786,0.929203703
785,0.928798798
784,0.928644136
783,0.927701736
782,0.927973352
781,0.927732654
780,0.92700893
779,0.926822659
778,0.92645935
777,0.926273475
776,0.925639788
775,0.925899909
774,0.925468573
773,0.925025784
772,0.925089316
771,0.924036456
770,0.924221331
769,0.923720667
768,0.923027371
767,0.923092233
766,0.922557766
765,0.922231836
764,0.9213567
763,0.921712587
762,0.920754467
761,0.920741141
760,0.919757609
759,0.919577857
758,0.919103201
757,0.918884315
756,0.918511103
755,0.917876014
754,0.917700652
753,0.916818522
752,0.916547989
751,0.916216894
750,0.916000798
749,0.915441781
748,0.914838944
747,0.914300412
746,0.91379988
745,0.913610185
744,0.913099047
743,0.912467368
742,0.91192529
741,0.91134542
740,0.911072636
739,0.910380638
738,0.90951589
737,0.909777699
736,0.908857236
735,0.908096467
734,0.907928146
733,0.907425083
732,0.906995376
731,0.905868468
730,0.906004438
729,0.905229829
728,0.904262664
727,0.904250393
726,0.903453089
725,0.90279504
724,0.901752225
723,0.901158431
722,0.900274146
721,0.899621022
720,0.899442414
719,0.898196707
718,0.897638318
717,0.896878558
716,0.896454032
715,0.895312489
714,0.894701084
713,0.893828533
712,0.892826042
711,0.892499901
710,0.891538399
709,0.890676659
708,0.890151026
707,0.888889805
706,0.888146571
705,0.887004065
704,0.886579184
703,0.885781707
702,0.884932655
701,0.884400701
700,0.883314446
699,0.882554091
698,0.881265279
697,0.880767971
696,0.879408293
695,0.87845273
694,0.877605519
693,0.876312311
692,0.875624328
691,0.874224099
690,0.873157727
689,0.871692019
688,0.871056775
687,0.86987464
686,0.868295768
685,0.867522805
684,0.866135524
683,0.864829155
682,0.863836287
681,0.862472493
680,0.861165491
679,0.859510263
678,0.85823979
677,0.856835605
676,0.855663038
675,0.85411897
674,0.852449597
673,0.851247123
672,0.84967064
671,0.848431763
670,0.846563138
669,0.845002232
668,0.843428469
667,0.841659505
666,0.840086342
665,0.838536971
664,0.836740434
663,0.834785581
662,0.833329703
661,0.831249337
660,0.829625576
659,0.827713481
658,0.825777138
657,0.823410493
656,0.821607229
655,0.819402229
654,0.8174975
653,0.815236609
652,0.812976676
651,0.810622913
650,0.808504341
649,0.806336676
648,0.803676224
647,0.801261056
646,0.798696164
645,0.796097127
644,0.793409459
643,0.790757224
642,0.78782451
641,0.785323216
640,0.782296773
639,0.779020418
638,0.776192479
637,0.7732266
636,0.770123702
635,0.766961612
634,0.763324353
633,0.760368003
632,0.757011644
631,0.752698119
630,0.748885541
629,0.745644359
628,0.741817356
627,0.73837594
626,0.734076084
625,0.730336175
624,0.726146237
623,0.722070324
622,0.717797281
621,0.713579594
620,0.709276206
619,0.704347261
618,0.69977876
617,0.694727843
616,0.689958585
615,0.68481379
614,0.679681342
613,0.674555469
612,0.668797251
611,0.663438089
610,0.657393577
609,0.651979714
608,0.645653359
607,0.639641926
606,0.63343633
605,0.626919588
604,0.620805661
603,0.613931132
602,0.606921757
601,0.599839035
600,0.592738894
599,0.585733088
598,0.577879233
597,0.570414296
596,0.562481524
595,0.554558352
594,0.545721519
593,0.537255013
592,0.528697595
591,0.520197465
590,0.511404522
589,0.502422832
588,0.493461686
587,0.484217721
586,0.474863587
585,0.465181284
584,0.455473032
583,0.445681916
582,0.43558512
581,0.42559797
580,0.415305674
579,0.4046324
578,0.39472036
577,0.384006235
576,0.373283541
575,0.362573789
574,0.351590198
573,0.340724024
572,0.329680618
571,0.318711166
570,0.30756
569,0.296691261
568,0.285873731
567,0.274746072
566,0.263968793
565,0.253618593
564,0.242701021
563,0.232484637
562,0.222323557
561,0.212546151
560,0.202808209
559,0.193488452
558,0.184446362
557,0.175746757
556,0.167376042
555,0.159384859
554,0.151969115
553,0.144861689
552,0.13828449
551,0.132270121
550,0.12674704
549,0.121829355
548,0.117370268
547,0.113273448
546,0.110174907
545,0.107551438
544,0.105510556
543,0.10394484
542,0.103080629
541,0.102817501
540,0.103448019
539,0.104461556
538,0.105926524
537,0.108298217
536,0.111028973
535,0.114426802
534,0.118214954
533,0.122666255
532,0.127494181
531,0.13277886
530,0.138872422
529,0.145068646
528,0.151556045
527,0.158634252
526,0.165817675
525,0.173607836
524,0.181546973
523,0.189742013
522,0.198111128
521,0.206676143
520,0.215465369
519,0.224301504
518,0.233236693
517,0.242482544
516,0.251695691
515,0.261014217
514,0.269991842
513,0.27944236
512,0.288871981
511,0.297829225
510,0.307220405
509,0.316400447
508,0.325598498
507,0.334598883
506,0.343541836
505,0.352448658
504,0.361100237
503,0.369750893
502,0.37821343
501,0.386422217
500,0.394467553
499,0.402636132
498,0.410219619
497,0.418103032
496,0.425612173
495,0.433040653
494,0.440581269
493,0.447514302
492,0.454598088
491,0.461203026
490,0.468018736
489,0.474310514
488,0.481069059
487,0.487146543
486,0.493113735
485,0.499316152
484,0.504653301
483,0.50996626
482,0.515730074
481,0.52089922
480,0.526209201
479,0.531107002
478,0.535884998
477,0.540405107
476,0.545213464
475,0.550586733
474,0.554938447
473,0.558978303
472,0.56295222
471,0.56709286
470,0.570626186
469,0.574718597
468,0.578000456
467,0.581840364
466,0.584662791
465,0.587811403
464,0.591247604
463,0.594009816
462,0.596902429
461,0.599494821
460,0.602072163
459,0.604834204
458,0.606920937
457,0.609544529
456,0.611299062
455,0.613366874
454,0.615414084
453,0.617310401
452,0.619267933
451,0.620846775
450,0.622251092
449,0.623560255
448,0.624980058
447,0.626315908
446,0.627697281
445,0.62851347
444,0.629699744
443,0.630448536
442,0.63121706
441,0.63214397
440,0.632981251
439,0.633282054
438,0.634001363
437,0.634542187
436,0.634525054
435,0.635116357
434,0.635096715
433,0.635071932
432,0.634968162
431,0.634935893
430,0.634819674
429,0.634522236
428,0.633578165
427,0.63328833
426,0.632328323
425,0.631722477
424,0.630775163
423,0.630218873
422,0.628739595
421,0.627795834
420,0.626441899
419,0.625134997
418,0.623566981
417,0.622383305
416,0.62058428
415,0.618565444
414,0.617202861
413,0.615170849
412,0.612890468
411,0.610686889
410,0.608465049
409,0.605957331
408,0.603308413
407,0.600602505
406,0.598066218
405,0.594617921
404,0.592149001
403,0.588700291
402,0.585495271
401,0.581626932
400,0.578331654
399,0.574897301
398,0.570849834
397,0.566966101
396,0.562685608
395,0.557864222
394,0.553198594
393,0.54924512
392,0.543265057
391,0.539385362
390,0.534024922
389,0.528759573
388,0.523597076
387,0.518269
386,0.512766511
385,0.506871209
384,0.501151237
383,0.495908627
382,0.490098805
381,0.484124263
380,0.478444872
379,0.472658917
378,0.466764843
377,0.46089104
376,0.455354538
375,0.449751729
374,0.444480495
373,0.438492843
372,0.432944171
371,0.426654758
370,0.421407487
369,0.416354921
368,0.410008065
367,0.404407759
366,0.398674549
365,0.393183844
364,0.387372038
363,0.38138752
362,0.375371386
361,0.36973435
360,0.362887715
359,0.356315939
358,0.350150286
357,0.343185508
356,0.337043886
355,0.330437271
354,0.323962222
353,0.316453896
352,0.309357991
351,0.302251133
350,0.294627995
349,0.287529988
348,0.280494179
347,0.272469914
346,0.263922159
345,0.254774665
344,0.245772684
343,0.236255934
342,0.226552943
341,0.215786082
340,0.205069207
339,0.193095645
338,0.181523124
337,0.169955339
336,0.157853829
335,0.145503468
334,0.133021375
333,0.121079465
332,0.10811797
331,0.096008112
330,0.08457897
329,0.072540422
328,0.061640927
327,0.051520213
326,0.04208206
325,0.03412989
324,0.026463848
323,0.020275071
322,0.014098025
321,0.010284827
320,0.006993119
319,0
318,0
317,0
316,0
315,0
314,0.002233771
313,0.00352209
312,0.008232054
311,0.010379103
310,0.014533662
309,0.016199865
308,0.019945157
307,0.023029624
306,0.025691865
305,0.029151173
304,0.031841462
303,0.034797216
302,0.037804663
301,0.04035244
300,0.043071872
